###Truck route record
###S.No.	VF	VL	Heading	Encoder-Raw	Tiller-Angle
1	0.0	0.0	0	0	5.95664453506
2	0.0	0.0	0	0	5.95664453506
3	0.0	0.0	0	0	5.95664453506
4	0.0	0.0	0	0	5.95664453506
5	0.0	0.0	0	0	5.95664453506
6	0.0	0.0	0	0	5.95664453506
7	0.0	0.0	0	0	5.95664453506
8	0.0	0.0	0	0	5.95664453506
9	0.0	0.0	0	0	5.95664453506
10	0.0	0.0	0	0	5.95664453506
11	0.449548155069	-0.0138547988608	0	2	1.54006147385
12	43.3853874207	-1.20021152496	0	206	1.54006147385
13	127.461921692	-3.38658952713	0	567	0.882272481918
14	245.050308228	-5.77344322205	0	1090	0.882272481918
15	360.612701416	-8.31384086609	0	1622	0.657788932323
16	459.31539917	-10.2870588303	0	2057	0.657788932323
17	529.687072754	-11.719543457	0	2369	0.657788932323
18	602.305419922	-13.337310791	0	2692	0.657788932323
19	687.736877441	-15.334189415	0	3075	0.657788932323
20	786.654541016	-17.7729263306	0	3517	0.657788932323
21	875.902160645	-20.0892276764	0	3896	0.657788932323
22	948.287414551	-22.0486297607	0	4218	0.657788932323
23	1022.46868896	-24.2285442352	0	4563	0.657788932323
24	1109.91015625	-26.6859054565	1	4937	0.657788932323
25	1200.04553223	-29.4293956757	1	5354	0.657788932323
26	1304.35241699	-32.3126296997	1	5835	0.219262972474
27	1394.05725098	-34.291847229	1	6227	0.0
28	1465.55603027	-35.5733184814	1	6530	-0.882272481918
29	1550.33483887	-35.2929954529	1	6896	-1.54006147385
30	1633.76135254	-34.4033966064	0	7283	-1.54006147385
31	1732.4753418	-33.0834846497	0	7726	-1.54006147385
32	1840.17260742	-30.9936828613	0	8218	-1.76454496384
33	1946.05444336	-28.2939929962	0	8672	-2.20307087898
34	2033.02600098	-24.8662109375	0	9092	-2.20307087898
35	2139.08154297	-20.8055171967	0	9529	-2.20307087898
36	2236.12890625	-16.3871631622	0	9947	-2.20307087898
37	2320.58105469	-12.0806436539	0	10335	-1.98380792141
38	2407.50317383	-7.89400291443	0	10726	-1.98380792141
39	2508.32983398	-2.49057841301	359	11173	-1.98380792141
40	2595.21533203	2.68003940582	359	11559	-1.98380792141
41	2677.14404297	7.72015714645	359	11926	-1.98380792141
42	2763.09423828	13.3272104263	359	12312	-1.98380792141
43	2862.48339844	19.8643398285	358	12737	-1.98380792141
44	2957.77929688	27.5080871582	358	13182	-2.20307087898
45	3060.2121582	35.7962150574	358	13636	-2.20307087898
46	3143.57714844	42.4407730103	358	13991	-1.98380792141
47	3210.12792969	48.0884780884	358	14288	-1.98380792141
48	3289.42919922	55.0630264282	357	14642	-1.98380792141
49	3378.11132812	63.554599762	357	15056	-1.98380792141
50	3488.69726562	73.7642211914	357	15532	-1.98380792141
51	3593.86376953	84.3113632202	357	16002	-1.98380792141
52	3662.53222656	91.7085189819	356	16320	-1.98380792141
53	3727.37890625	98.3728561401	356	16599	-1.98380792141
54	3816.79174805	108.21395874	356	17016	-1.98380792141
55	3912.19848633	119.452819824	356	17440	-1.98380792141
56	4014.46118164	131.346099854	356	17884	-2.20307087898
57	4110.16943359	143.476272583	355	18313	-2.20307087898
58	4180.18652344	152.624420166	355	18637	-2.20307087898
59	4244.80810547	161.401916504	355	18933	-2.42755436897
60	4337.65234375	174.58605957	355	19352	-2.42755436897
61	4440.43994141	189.712524414	354	19812	-2.42755436897
62	4555.36572266	207.287002563	354	20330	-2.42755436897
63	4646.56542969	222.289489746	354	20724	-2.86608052254
64	4714.16796875	233.876846313	354	21040	-2.86608052254
65	4782.34228516	246.106246948	353	21350	-3.0853433609
66	4873.81933594	262.160369873	353	21750	-1.98380792141
67	4975.41064453	279.105804443	353	22226	-1.76454496384
68	5088.70410156	298.338592529	353	22719	-1.76454496384
69	5164.63916016	311.886444092	352	23072	-2.20307087898
70	5225.45263672	323.11920166	352	23337	-2.20307087898
71	5300.54638672	338.146392822	352	23692	-2.42755436897
72	5410.64013672	360.10357666	352	24196	-2.42755436897
73	5547.95068359	388.145385742	351	24800	-2.86608052254
74	5664.99804688	413.962341309	351	25333	-2.86608052254
75	5740.00292969	430.968566895	350	25675	-2.86608052254
76	5816.02392578	448.578491211	350	26022	-2.86608052254
77	5912.08056641	471.371429443	350	26478	-2.86608052254
78	6035.28417969	501.49520874	349	27025	-2.86608052254
79	6178.94189453	539.294555664	349	27709	-2.86608052254
80	6308.18701172	572.496337891	348	28279	-3.74835276604
81	6380.05273438	593.546630859	348	28622	-4.19209957123
82	6442.90478516	613.349060059	348	28916	-4.19209957123
83	6533.32666016	640.615600586	347	29343	-4.41136264801
84	6626.21191406	671.299865723	347	29760	-4.85510873795
85	6726.35742188	705.797424316	346	30249	-4.85510873795
86	6824.97119141	743.503234863	345	30717	-7.06340026855
87	6912.25732422	780.311950684	344	31133	-7.94567251205
88	6991.74121094	816.623352051	344	31524	-7.94567251205
89	7078.77441406	856.209716797	343	31951	-8.82794570923
90	7161.85595703	901.913146973	342	32370	-10.1487436295
91	7256.05273438	955.607849121	340	32852	-10.1487436295
92	7337.68554688	1002.62213135	339	33274	-10.1487436295
93	7410.92626953	1048.36694336	338	33643	-10.1487436295
94	7487.99658203	1098.56188965	337	34052	-10.1487436295
95	7572.19433594	1155.90380859	336	34521	-10.1487436295
96	7650.44433594	1215.26123047	334	34965	-13.0200443268
97	7717.79736328	1269.94384766	333	35342	-13.4637908936
98	7790.38476562	1334.50610352	332	35760	-13.4637908936
99	7860.5390625	1400.39746094	330	36203	-13.4637908936
100	7916.43066406	1456.44311523	329	36551	-14.5653266907
101	7960.48974609	1507.58654785	327	36851	-14.5653266907
102	8019.09472656	1572.17932129	326	37251	-14.7845897675
103	8084.83398438	1648.14831543	324	37675	-14.5653266907
104	8151.72119141	1732.86450195	322	38155	-14.3460636139
105	8204.20117188	1803.13049316	321	38545	-14.3460636139
106	8245.49414062	1861.23742676	320	38862	-14.3460636139
107	8287.03710938	1925.45983887	318	39207	-14.3460636139
108	8340.21191406	2005.36486816	317	39629	-14.3460636139
109	8386.17089844	2084.74487305	315	40041	-14.3460636139
110	8436.02246094	2169.95727539	313	40476	-14.3460636139
111	8477.88085938	2249.31933594	312	40875	-14.3460636139
112	8519.62890625	2334.03833008	310	41295	-14.3460636139
113	8558.97363281	2419.65307617	309	41714	-14.1268005371
114	8599.58007812	2514.54589844	307	42188	-14.1268005371
115	8628.60839844	2587.70361328	306	42535	-14.1268005371
116	8651.52832031	2649.23730469	304	42825	-14.1268005371
117	8678.84082031	2726.16333008	303	43178	-13.6830539703
118	8709.14160156	2822.32519531	302	43628	-13.6830539703
119	8735.65722656	2907.23486328	300	44022	-13.6830539703
120	8758.43847656	2990.29589844	299	44405	-13.4637908936
121	8783.06542969	3092.82421875	297	44890	-13.2393083572
122	8810.02929688	3215.44165039	295	45451	-13.2393083572
123	8830.17285156	3321.15844727	293	45926	-13.2393083572
124	8846.375	3426.73632812	292	46401	-13.2393083572
125	8858.74511719	3530.75	290	46852	-13.4637908936
126	8866.515625	3611.36401367	289	47212	-13.6830539703
127	8871.00585938	3676.64916992	288	47512	-13.6830539703
128	8874.65039062	3751.66967773	286	47852	-13.6830539703
129	8876.94628906	3849.91186523	285	48289	-13.6830539703
130	8876.5703125	3952.22827148	283	48729	-13.6830539703
131	8872.98730469	4054.93505859	281	49186	-13.6830539703
132	8867.22363281	4147.85400391	280	49600	-13.6830539703
133	8859.93457031	4230.73681641	279	49970	-13.9023170471
134	8848.60449219	4331.23193359	277	50420	-13.9023170471
135	8833.27148438	4431.33691406	275	50886	-13.9023170471
136	8817.91503906	4518.59570312	274	51276	-13.9023170471
137	8803.10449219	4592.45996094	272	51611	-13.9023170471
138	8782.78515625	4682.39111328	271	52026	-13.6830539703
139	8760.76074219	4773.07910156	269	52424	-13.0200443268
140	8733.97265625	4877.58740234	268	52905	-13.0200443268
141	8704.55566406	4972.86132812	266	53347	-13.0200443268
142	8679.17480469	5051.15527344	265	53724	-13.0200443268
143	8652.97167969	5126.32519531	264	54067	-13.0200443268
144	8619.12207031	5216.42285156	262	54495	-13.0200443268
145	8586.88085938	5304.03857422	261	54912	-10.5924901962
146	8550.87597656	5399.31738281	260	55365	-10.3732280731
147	8518.06054688	5480.72753906	259	55755	-10.3732280731
148	8490.36425781	5544.40576172	258	56073	-9.71021747589
149	8459.69921875	5620.61328125	257	56430	-9.49095535278
150	8421.40917969	5710.48339844	256	56867	-9.49095535278
151	8375.09570312	5803.2109375	254	57322	-9.49095535278
152	8330.51367188	5898.54541016	253	57804	-7.72118902206
153	8297.53613281	5968.52246094	253	58134	-7.72118902206
154	8269.35546875	6026.58544922	252	58433	-7.72118902206
155	8231.85644531	6104.89306641	251	58810	-6.83891677856
156	8187.63916016	6191.39208984	250	59239	-6.40039110184
157	8144.64404297	6276.49755859	250	59663	-6.40039110184
158	8102.98291016	6359.45507812	249	60092	-6.40039110184
159	8055.87890625	6443.99902344	248	60506	-6.61965417862
160	8010.75878906	6524.66357422	248	60917	-6.61965417862
161	7962.78955078	6611.53320312	247	61363	-6.61965417862
162	7915.27685547	6685.27685547	246	61748	-7.94567251205
163	7871.58837891	6752.36181641	245	62104	-8.164935112
164	7826.83007812	6819.00927734	244	62461	-8.164935112
165	7772.49169922	6898.17919922	243	62888	-7.06340026855
166	7723.68212891	6970.50146484	243	63276	-6.40039110184
167	7670.21142578	7048.35791016	242	63713	-6.40039110184
168	7616.14941406	7127.90771484	241	64129	-6.40039110184
169	7555.42919922	7209.00927734	241	64574	-6.17590761185
170	7503.32275391	7281.89794922	240	64977	-6.17590761185
171	7458.33837891	7339.14257812	239	65307	-6.17590761185
172	7410.65869141	7398.89208984	239	65650	-8.82794570923
173	7343.17822266	7474.60058594	238	66087	-9.49095535278
174	7255.15478516	7568.39355469	236	66659	-9.49095535278
175	7163.63720703	7657.75683594	234	67228	-12.1377725601
176	7105.65966797	7708.28759766	233	67580	-12.3570356369
177	7078.87792969	7730.94628906	233	67732	-12.3570356369
178	7019.01611328	7779.93945312	232	68070	-12.5815191269
179	6920.07177734	7853.72900391	230	68639	-14.3460636139
180	6824.63037109	7917.71875	228	69130	-14.3460636139
181	6753.80419922	7962.23535156	226	69514	-14.3460636139
182	6684.01757812	8002.81396484	225	69861	-15.0090732574
183	6613.74755859	8041.16699219	223	70231	-15.0090732574
184	6525.60449219	8086.11669922	222	70674	-15.0090732574
185	6435.60205078	8128.28173828	220	71099	-15.4475984573
186	6353.26757812	8163.37304688	218	71497	-15.4475984573
187	6281.10839844	8191.87011719	217	71842	-15.4475984573
188	6192.33789062	8224.11621094	215	72262	-15.4475984573
189	6100.85498047	8254.74316406	213	72691	-14.5653266907
190	6011.24707031	8283.13574219	212	73109	-14.3460636139
191	5925.03027344	8307.98144531	210	73526	-14.3460636139
192	5821.13085938	8334.6328125	208	74001	-14.3460636139
193	5731.18310547	8354.88085938	207	74395	-14.3460636139
194	5657.07958984	8369.62695312	205	74731	-14.3460636139
195	5582.43994141	8382.73632812	204	75068	-14.3460636139
196	5493.26464844	8396.57617188	203	75484	-14.3460636139
197	5399.73632812	8407.5390625	201	75888	-14.3460636139
198	5291.57421875	8417.421875	199	76371	-14.3460636139
199	5204.04492188	8422.91699219	198	76761	-14.1268005371
200	5128.12158203	8426.52539062	196	77099	-13.6830539703
201	5052.14208984	8428.64355469	195	77451	-13.6830539703
202	4955.22265625	8428.94628906	194	77868	-13.6830539703
203	4864.38818359	8427.25097656	192	78291	-13.2393083572
204	4761.02490234	8423.20019531	190	78751	-13.0200443268
205	4665.43457031	8416.67089844	189	79172	-13.0200443268
206	4582.11767578	8409.41113281	188	79530	-13.0200443268
207	4497.83349609	8400.26855469	186	79922	-12.3570356369
208	4398.77001953	8387.8046875	185	80351	-12.3570356369
209	4309.60205078	8374.36132812	184	80752	-12.3570356369
210	4231.16162109	8360.77832031	182	81122	-12.3570356369
211	4140.41650391	8343.24023438	181	81517	-12.1377725601
212	4041.75756836	8321.76855469	180	81966	-12.1377725601
213	3957.18530273	8300.41210938	178	82368	-12.1377725601
214	3881.78515625	8281.15527344	177	82700	-12.3570356369
215	3798.24584961	8256.76757812	176	83104	-12.3570356369
216	3710.78955078	8229.03125	175	83509	-12.3570356369
217	3613.24584961	8195.29101562	173	83954	-13.0200443268
218	3521.48657227	8157.59082031	171	84408	-13.4637908936
219	3445.3984375	8125.06982422	170	84775	-13.4637908936
220	3377.41748047	8095.47998047	169	85106	-13.4637908936
221	3292.17016602	8054.30078125	167	85514	-13.4637908936
222	3210.62744141	8012.24609375	166	85937	-13.4637908936
223	3126.28149414	7965.88818359	164	86365	-13.4637908936
224	3048.80249023	7920.63720703	163	86749	-13.4637908936
225	2978.37207031	7877.18896484	162	87131	-13.4637908936
226	2909.67651367	7830.51220703	160	87496	-13.6830539703
227	2828.69213867	7774.01220703	159	87937	-12.5815191269
228	2749.95800781	7724.046875	157	88340	-10.1487436295
229	2685.39746094	7681.02294922	156	88710	-10.1487436295
230	2613.09790039	7630.984375	155	89076	-10.1487436295
231	2534.05541992	7576.078125	154	89504	-7.72118902206
232	2464.26171875	7529.14648438	154	89878	-7.28266334534
233	2392.01977539	7479.41845703	153	90268	-7.28266334534
234	2317.76293945	7427.07617188	152	90672	-5.29363489151
235	2233.84350586	7372.97900391	152	91131	-3.52908992767
236	2162.24682617	7327.15722656	151	91508	-3.52908992767
237	2102.99194336	7288.75097656	151	91818	-3.52908992767
238	2031.78051758	7244.02050781	151	92182	-0.882272481918
239	1953.06726074	7197.31494141	151	92604	-0.657788932323
240	1862.86706543	7141.90527344	151	93090	-0.657788932323
241	1777.65490723	7091.84667969	150	93508	-0.882272481918
242	1719.82116699	7058.49707031	150	93796	-0.882272481918
243	1669.23876953	7027.84814453	150	94070	-1.10153543949
244	1589.18273926	6979.01318359	150	94476	-1.10153543949
245	1478.32775879	6910.28857422	150	95056	-1.76454496384
246	1358.80810547	6834.21875	150	95710	-1.76454496384
247	1259.28076172	6769.88134766	149	96213	-1.98380792141
248	1199.81616211	6729.4921875	149	96541	-1.98380792141
249	1142.50134277	6693.29833984	149	96847	-1.76454496384
250	1063.52416992	6641.49707031	149	97254	-1.54006147385
251	983.812927246	6587.31982422	149	97707	-1.54006147385
252	893.582092285	6529.52099609	148	98159	-1.54006147385
253	814.217529297	6476.67382812	148	98583	-1.54006147385
254	747.893920898	6432.23876953	148	98949	-1.54006147385
255	678.677490234	6386.06152344	148	99327	-1.10153543949
256	594.252563477	6329.85839844	148	99759	-1.10153543949
257	520.979553223	6280.84765625	148	100167	-1.10153543949
258	449.485595703	6232.81787109	148	100548	-1.10153543949
259	374.52935791	6181.87890625	148	100954	-1.32079851627
260	292.87600708	6125.99267578	147	101406	-1.32079851627
261	217.853485107	6072.82080078	147	101794	-1.32079851627
262	153.124420166	6029.57568359	147	102149	-1.32079851627
263	74.4727630615	5974.8828125	147	102558	-1.32079851627
264	-9.1877822876	5916.36523438	147	103028	-1.32079851627
265	-88.2726898193	5860.72167969	147	103456	-1.32079851627
266	-159.346633911	5810.10791016	146	103830	-1.54006147385
267	-240.272186279	5752.00878906	146	104273	-1.54006147385
268	-318.788024902	5692.80615234	146	104735	-1.76454496384
269	-392.481964111	5638.90820312	146	105138	-1.54006147385
270	-460.141998291	5589.72167969	146	105496	-1.54006147385
271	-541.589111328	5531.26074219	146	105934	-1.54006147385
272	-615.115356445	5476.75390625	145	106341	-0.882272481918
273	-687.712646484	5425.18164062	145	106737	0.0
274	-763.838012695	5371.58544922	145	107151	0.0
275	-850.99609375	5310.22363281	145	107625	0.0
276	-922.886474609	5258.81933594	145	108018	-0.438525944948
277	-981.72845459	5215.30566406	145	108350	-0.438525944948
278	-1044.03771973	5171.53320312	145	108695	-0.657788932323
279	-1119.19189453	5116.96484375	145	109095	-0.438525944948
280	-1199.99658203	5059.08349609	145	109537	0.0
281	-1287.62878418	4996.83105469	145	110015	0.0
282	-1355.82824707	4948.38378906	145	110401	0.0
283	-1415.35839844	4905.59765625	145	110724	-0.438525944948
284	-1479.31713867	4859.34033203	145	111064	-0.438525944948
285	-1554.16638184	4805.11621094	145	111475	-0.438525944948
286	-1635.70043945	4745.93798828	145	111941	-0.438525944948
287	-1720.27026367	4684.43359375	145	112388	-0.438525944948
288	-1778.25305176	4642.19238281	145	112707	-0.438525944948
289	-1828.94226074	4605.21777344	145	112986	-0.438525944948
290	-1901.57763672	4552.15478516	145	113386	-0.438525944948
291	-1983.05822754	4490.39501953	145	113851	-0.438525944948
292	-2061.21972656	4435.20751953	145	114280	-0.438525944948
293	-2132.44580078	4381.15429688	145	114686	-0.438525944948
294	-2218.83789062	4319.30224609	145	115136	-0.438525944948
295	-2295.21606445	4262.97851562	145	115582	-0.438525944948
296	-2352.1965332	4220.89355469	144	115882	-0.438525944948
297	-2408.78857422	4177.16455078	144	116200	-0.438525944948
298	-2487.93457031	4120.40527344	144	116624	-0.438525944948
299	-2565.9440918	4062.50634766	144	117056	-0.438525944948
300	-2633.61889648	4012.18920898	144	117431	-0.438525944948
301	-2704.1394043	3959.66992188	144	117822	-0.438525944948
302	-2787.04931641	3897.80932617	144	118299	-0.438525944948
303	-2863.95922852	3840.31567383	144	118709	-0.438525944948
304	-2927.32202148	3792.86987305	144	119073	-0.438525944948
305	-2976.26098633	3756.17578125	144	119341	-0.438525944948
306	-2981.11767578	3752.53198242	144	119360	-0.438525944948
307	-2981.11767578	3752.53198242	144	119360	-0.438525944948
308	-2981.11767578	3752.53198242	144	119360	-0.438525944948
309	-2981.11767578	3752.53198242	144	119360	-0.438525944948
310	-2981.11767578	3752.53198242	144	119360	-0.438525944948
311	-2981.11767578	3752.53198242	144	119360	-0.438525944948
312	-2981.11767578	3752.53198242	144	119360	-0.438525944948
313	-2981.11767578	3752.53198242	144	119360	-0.438525944948
314	-2981.11767578	3752.53198242	144	119360	-0.438525944948
315	-2981.11767578	3752.53198242	144	119360	-0.438525944948
316	-2981.11767578	3752.53198242	144	119360	-0.438525944948
317	-2981.11767578	3752.53198242	144	119360	-0.438525944948
318	-2981.11767578	3752.53198242	144	119360	-0.438525944948
319	-2981.11767578	3752.53198242	144	119360	-0.438525944948
320	-2981.11767578	3752.53198242	144	119360	-0.438525944948
321	-2981.11767578	3752.53198242	144	119360	-0.438525944948
322	-2981.11767578	3752.53198242	144	119360	-0.438525944948
323	-2981.11767578	3752.53198242	144	119360	-0.438525944948
324	-2981.11767578	3752.53198242	144	119360	-0.438525944948
325	-2981.11767578	3752.53198242	144	119360	-0.438525944948
326	-2981.11767578	3752.53198242	144	119360	-0.438525944948
327	-2981.11767578	3752.53198242	144	119360	-0.438525944948
328	-2981.11767578	3752.53198242	144	119360	-0.438525944948
329	-2981.11767578	3752.53198242	144	119360	-0.438525944948
330	-2981.11767578	3752.53198242	144	119360	-0.438525944948
331	-2981.11767578	3752.53198242	144	119360	-0.438525944948
332	-2981.11767578	3752.53198242	144	119360	-0.438525944948
333	-2981.11767578	3752.53198242	144	119360	-0.438525944948
334	-2981.11767578	3752.53198242	144	119360	-0.438525944948
335	-2981.11767578	3752.53198242	144	119360	-0.438525944948
336	-2981.11767578	3752.53198242	144	119360	-0.438525944948
337	-2981.11767578	3752.53198242	144	119360	-0.438525944948
338	-2981.11767578	3752.53198242	144	119360	-0.438525944948
339	-2981.11767578	3752.53198242	144	119360	-0.438525944948
340	-2981.11767578	3752.53198242	144	119360	-0.438525944948
341	-2981.11767578	3752.53198242	144	119360	-0.438525944948
342	-2981.11767578	3752.53198242	144	119360	-0.438525944948
343	-2981.11767578	3752.53198242	144	119360	-0.438525944948
344	-2981.11767578	3752.53198242	144	119360	-0.438525944948
345	-2981.11767578	3752.53198242	144	119360	-0.438525944948
346	-2981.11767578	3752.53198242	144	119360	-0.438525944948
347	-2981.11767578	3752.53198242	144	119360	-0.438525944948
348	-2981.11767578	3752.53198242	144	119360	-0.438525944948
349	-2981.11767578	3752.53198242	144	119360	-0.438525944948
350	-2983.27636719	3750.91210938	144	119372	-0.438525944948
351	-3038.12402344	3709.72851562	144	119677	-0.438525944948
352	-3267.11938477	3537.18432617	144	121013	-0.438525944948
353	-3621.4675293	3268.30200195	144	122930	-0.438525944948
354	-3753.57348633	3167.47485352	144	123669	-0.438525944948
