###Truck route record
###S.No.	VF	VL	Heading	Encoder-Raw	Tiller-Angle
1	1122.82983398	-0.0487639568746	0	5010	0.0
2	1198.16467285	-0.0506030246615	0	5338	0.0
3	1264.05407715	-0.0522458478808	0	5679	0.0
4	1358.95373535	-0.0545559115708	0	6043	0.0
5	1469.37036133	-0.0574098601937	0	6569	0.0
6	1572.81567383	-0.0598881617188	0	6994	0.0
7	1653.77294922	-0.0619683489203	0	7365	0.0
8	1738.77770996	-0.0640260800719	0	7750	0.0
9	1836.82519531	-0.0664706900716	0	8168	0.0
10	1928.12695312	-0.0688368156552	0	8590	0.0
11	2020.10339355	-0.0710403546691	0	8996	0.0
12	2104.65942383	-0.0731485784054	0	9359	0.0
13	2194.83837891	-0.0753969475627	0	9760	0.0
14	2296.03515625	-0.0779200792313	0	10228	0.0
15	2397.23193359	-0.0804432183504	0	10660	0.0
16	2466.71850586	-0.0822374746203	0	10980	0.0
17	2530.58349609	-0.0837682038546	0	11266	0.0
18	2623.90917969	-0.086095072329	0	11668	0.0
19	2726.67993164	-0.088657438755	0	12125	0.0
20	2820.90673828	-0.0910067483783	0	12544	0.0
21	2906.58642578	-0.0931429862976	0	12941	0.0
22	3007.33398438	-0.0956548973918	0	13373	0.0
23	3101.56054688	-0.0980041921139	0	13792	0.0
24	3182.96704102	-0.100033894181	0	14154	0.0
25	3260.09985352	-0.10195709765	0	14497	0.0
26	3356.34985352	-0.104356870055	0	14941	0.0
27	3451.70068359	-0.106734208763	0	15349	0.0
28	3541.65478516	-0.108976975083	0	15765	0.0
29	3633.18310547	-0.111259013414	0	16156	0.0
30	3735.50415039	-0.113810159266	0	16627	0.0
31	3819.38452148	-0.115901574492	0	16984	0.0
32	3885.27319336	-0.117606118321	0	17288	0.0
33	3958.35839844	-0.119366720319	0	17602	0.0
34	4057.30664062	-0.121957138181	0	18064	0.0
35	4189.98632812	-0.125141918659	0	18632	0.0
36	4330.53515625	-0.128646239638	0	19277	0.0
37	4427.68310547	-0.131068468094	0	19689	0.0
38	4495.37353516	-0.132756143808	0	19990	0.0
39	4574.53076172	-0.134729832411	0	20342	0.0
40	4673.25195312	-0.137191265821	0	20799	0.0
41	4764.77783203	-0.139473304152	0	21202	0.0
42	4841.91259766	-0.141463771462	0	21543	0.0
43	4929.16503906	-0.143571987748	0	21935	0.0
44	5026.76269531	-0.146005302668	0	22353	0.0
45	5122.11132812	-0.14847792685	0	22794	0.0
46	5222.85546875	-0.15097860992	0	23240	0.0
47	5311.90820312	-0.153193369508	0	23635	0.0
48	5394.66455078	-0.155251145363	0	24002	0.0
49	5494.06103516	-0.157656490803	0	24431	0.0
50	5593.45800781	-0.160134732723	0	24873	0.0
51	5675.31298828	-0.16217571497	0	25237	0.0
52	5745.25146484	-0.163992360234	0	25561	0.0
53	5833.17919922	-0.166195884347	0	25971	0.0
54	5930.55078125	-0.168539568782	0	26390	0.0
55	6043.44140625	-0.171556144953	0	26929	0.0
56	6144.18701172	-0.173933506012	0	27334	0.0
57	6218.17431641	-0.175710886717	0	27651	0.0
58	6292.38671875	-0.177639663219	0	27995	0.0
59	6393.80712891	-0.180089876056	0	28432	0.0
60	6499.94970703	-0.182736411691	0	28921	0.0
61	6604.29345703	-0.185338035226	0	29368	0.0
62	6682.328125	-0.187283650041	0	29715	0.0
63	6747.77001953	-0.188915282488	0	30006	0.0
64	6822.20800781	-0.190771147609	0	30337	0.0
65	6913.73291016	-0.193053171039	0	30744	0.0
66	7015.37792969	-0.195587486029	0	31196	0.0
67	7114.32373047	-0.198054566979	0	31650	0.0
68	7189.20947266	-0.199921682477	0	31969	0.0
69	7254.65234375	-0.201553314924	0	32260	0.0
70	7338.30712891	-0.203740030527	0	32667	0.0
71	7447.14697266	-0.206352859735	0	33116	0.0
72	7530.35253906	-0.208494737744	0	33498	0.0
73	7609.06152344	-0.210389912128	0	33850	0.0
74	7699.46191406	-0.212643891573	0	34272	0.0
75	7801.33056641	-0.215267911553	0	34721	0.0
76	7909.27197266	-0.217981681228	0	35190	0.0
77	8001.47363281	-0.220241263509	0	35650	0.0
78	8086.93164062	-0.222304657102	0	35961	0.0
79	8168.11425781	-0.224328756332	0	36322	0.0
80	8267.50683594	-0.226891070604	0	36797	0.0
81	8364.65527344	-0.229229182005	0	37196	0.0
82	8450.33691406	-0.231438368559	0	37590	0.0
83	8544.78613281	-0.233815714717	0	38031	0.0
84	8654.72167969	-1.28164660931	0	38486	4.19209957123
85	8707.30273438	-6.62810707092	0	38725	6.40039110184
86	8713.77734375	-7.29000091553	0	38749	6.17590761185
87	8713.5546875	-7.26400613785	0	38749	6.17590761185
88	8713.5546875	-7.26400613785	0	38749	6.17590761185
89	8713.5546875	-7.26400613785	0	38749	6.17590761185
90	8713.5546875	-7.26400613785	0	38749	6.17590761185
91	8713.5546875	-7.26400613785	0	38749	6.17590761185
92	8713.5546875	-7.26400613785	0	38749	6.17590761185
93	8713.5546875	-7.26400613785	0	38749	6.17590761185
94	8713.5546875	-7.26400613785	0	38749	6.17590761185
95	8713.5546875	-7.26400613785	0	38749	6.17590761185
96	8713.5546875	-7.26400613785	0	38749	6.17590761185
97	8713.5546875	-7.26400613785	0	38749	6.17590761185
98	8713.5546875	-7.26400613785	0	38749	6.17590761185
99	8713.5546875	-7.26400613785	0	38749	6.17590761185
100	8713.5546875	-7.26400613785	0	38749	6.17590761185
101	8713.5546875	-7.26400613785	0	38749	6.17590761185
102	8713.5546875	-7.26400613785	0	38749	6.17590761185
103	8713.5546875	-7.26400613785	0	38749	6.17590761185
104	8713.5546875	-7.26400613785	0	38749	6.17590761185
105	8713.5546875	-7.26400613785	0	38749	6.17590761185
106	8713.5546875	-7.26400613785	0	38749	6.17590761185
107	8713.5546875	-7.26400613785	0	38749	6.17590761185
