###Truck route record
###S.No.	VF	VL	Heading	Encoder-Raw	Tiller-Angle
1	0.0	0.0	0	0	5.95664453506
2	0.0	0.0	0	0	5.95664453506
3	0.0	0.0	0	0	5.95664453506
4	0.0	0.0	0	0	5.95664453506
5	0.0	0.0	0	0	5.95664453506
6	0.0	0.0	0	0	5.95664453506
7	0.0	0.0	0	0	5.95664453506
8	0.0	0.0	0	0	5.95664453506
9	0.0	0.0	0	0	5.73738098145
10	0.0	0.0	0	0	5.73738098145
11	0.0	0.0	0	0	2.42755436897
12	0.0	0.0	0	0	-1.76454496384
13	0.0	0.0	0	0	-1.76454496384
14	0.0	0.0	0	0	-1.76454496384
15	0.0	0.0	0	0	-1.76454496384
16	0.0	0.0	0	0	-1.54006147385
17	4.49742650986	0.0397565066814	0	20	0.0
18	66.5645294189	0.0427198186517	0	296	0.0
19	164.162796021	0.0473795384169	0	730	0.0
20	304.038726807	0.0540577247739	0	1352	0.0
21	412.656219482	0.0592435337603	0	1835	0.0
22	483.493865967	0.0626255720854	0	2150	0.0
23	551.407775879	0.0658681318164	0	2452	0.0
24	643.159240723	0.0702487379313	0	2860	0.0
25	746.379577637	0.0751768946648	0	3337	0.0
26	860.843688965	0.0806418731809	0	3828	0.0
27	938.42755127	0.0843460932374	0	4173	0.0
28	999.144897461	0.0872450694442	0	4453	0.0
29	1078.75256348	0.0910459160805	0	4812	0.0
30	1181.07385254	0.0961136519909	0	5269	0.0
31	1274.39916992	0.100537210703	0	5710	0.0
32	1359.40429688	0.104445435107	0	6058	0.0
33	1447.55737305	0.108654260635	0	6455	0.0
34	1543.80639648	0.113399907947	0	6879	0.0
35	1644.1036377	0.118038184941	0	7311	0.0
36	1736.07958984	0.122429527342	0	7720	0.0
37	1812.08947754	0.12605856359	0	8070	0.0
38	1880.6776123	0.129333242774	0	8376	0.0
39	1966.35693359	0.133423894644	0	8760	0.0
40	2059.0078125	0.137847319245	0	9156	0.0
41	2165.15185547	0.143097490072	0	9661	0.0
42	2255.77880859	0.147241801023	0	10031	0.0
43	2317.61987305	0.150312483311	0	10317	0.0
44	2391.38012695	0.153715953231	0	10634	0.0
45	2489.65380859	0.158590301871	0	11088	0.0
46	2579.60693359	0.162702396512	0	11471	0.0
47	2639.64941406	0.165569111705	0	11738	0.0
48	2706.66333008	0.168768629432	0	12036	0.0
49	2818.87841797	0.174330219626	0	12554	0.0
50	2941.43701172	0.180192545056	0	13100	0.0
51	3056.12548828	0.185636043549	0	13607	0.0
52	3132.80908203	0.189222052693	0	13941	0.0
53	3195.32519531	0.192099496722	0	14209	0.0
54	3272.68383789	0.195792853832	0	14568	0.0
55	3367.81005859	0.200334385037	0	14976	0.0
56	3464.51025391	0.2049510777	0	15406	0.0
57	3569.30517578	0.209954306483	0	15872	0.0
58	3658.80957031	0.214388519526	0	16285	0.0
59	3742.015625	0.218339592218	0	16653	0.0
60	3836.91625977	0.222902595997	0	17078	0.0
61	3941.26147461	0.227905809879	0	17544	0.0
62	4033.9140625	0.232297062874	0	17953	0.0
63	4119.81787109	0.236237406731	0	18320	0.0
64	4216.74072266	0.24086484313	0	18768	0.0
65	4319.50878906	0.245771452785	0	19208	0.0
66	4407.88671875	0.249990895391	0	19601	0.0
67	4485.92138672	0.253716409206	0	19948	0.0
68	4579.24707031	0.25817206502	0	20363	0.0
69	4675.04345703	0.262745797634	0	20789	0.0
70	4762.29638672	0.267072737217	0	21206	0.0
71	4852.0234375	0.271195650101	0	21576	0.0
72	4951.86914062	0.275962591171	0	22020	0.0
73	5044.74267578	0.280396789312	0	22433	0.0
74	5120.52832031	0.284014940262	0	22770	0.0
75	5190.2421875	0.287343293428	0	23080	0.0
76	5278.39501953	0.291552066803	0	23472	0.0
77	5375.54296875	0.296190321445	0	23904	0.0
78	5482.35986328	0.301290124655	0	24379	0.0
79	5569.83691406	0.305466622114	0	24768	0.0
80	5638.87646484	0.308762699366	0	25085	0.0
81	5710.16455078	0.312166213989	0	25392	0.0
82	5805.96240234	0.316739976406	0	25818	0.0
83	5928.29931641	0.322806328535	0	26428	0.0
84	6100.78173828	0.330815881491	0	27129	0.0
85	6263.36914062	0.338578492403	0	27878	0.0
86	6386.82763672	0.344472914934	0	28401	0.0
87	6461.71289062	0.348048150539	0	28734	0.0
88	6523.78222656	0.351011544466	0	29010	0.0
89	6607.4375	0.355005592108	0	29399	0.0
90	6704.58496094	0.359643727541	0	29829	0.0
91	6788.68945312	0.36365917325	0	30188	0.0
92	6869.19628906	0.367502748966	0	30546	0.0
93	6956.0	0.37164708972	0	30951	0.0
94	7048.20019531	0.376199454069	0	31356	0.0
95	7138.60205078	0.380365282297	0	31744	0.0
96	7228.10400391	0.384638547897	0	32156	0.0
97	7319.85351562	0.389019072056	0	32566	0.0
98	7407.10644531	0.393184900284	0	32951	0.0
99	7498.18212891	0.397533237934	0	33343	0.0
100	7587.90917969	0.401817262173	0	33758	0.0
101	7690.00292969	0.406691521406	0	34215	0.0
102	7787.14941406	0.411329686642	0	34642	0.0
103	7861.58544922	0.414883434772	0	34969	0.0
104	7928.60205078	0.418083012104	0	35257	0.0
105	8018.99267578	-0.0976997092366	0	35659	3.52908992767
106	8098.43701172	-8.09520339966	0	36049	6.40039110184
107	8129.01708984	-11.5972642899	0	36151	6.17590761185
108	8128.12451172	-11.4884853363	0	36147	6.17590761185
109	8128.12451172	-11.4884853363	0	36147	6.17590761185
110	8128.34765625	-11.5156831741	0	36148	6.17590761185
111	8128.34765625	-11.5156831741	0	36148	6.17590761185
112	8128.34765625	-11.5156831741	0	36148	6.17590761185
113	8128.34765625	-11.5156831741	0	36148	6.17590761185
114	8128.34765625	-11.5156831741	0	36148	6.17590761185
115	8128.34765625	-11.5156831741	0	36148	6.17590761185
116	8128.34765625	-11.5156831741	0	36148	6.17590761185
117	8128.34765625	-11.5156831741	0	36148	6.17590761185
118	8128.34765625	-11.5156831741	0	36148	6.17590761185
119	8128.34765625	-11.5156831741	0	36148	6.17590761185
120	8128.34765625	-11.5156831741	0	36148	6.17590761185
121	8128.34765625	-11.5156831741	0	36148	6.17590761185
122	8128.34765625	-11.5156831741	0	36148	6.17590761185
123	8128.34765625	-11.5156831741	0	36148	6.17590761185
124	8128.34765625	-11.5156831741	0	36148	6.17590761185
125	8128.34765625	-11.5156831741	0	36148	6.17590761185
126	8128.34765625	-11.5156831741	0	36148	6.17590761185
127	8128.34765625	-11.5156831741	0	36148	6.17590761185
128	8128.34765625	-11.5156831741	0	36148	6.17590761185
129	8128.34765625	-11.5156831741	0	36148	6.17590761185
